% logfile for Python side
% 1 time (sec)
% 2 Mission state
% 3,4,5 (x,y,h) (m,m,rad)
% 6 Camera frame count
% 7 Line sensor line position
% 8,9 trip A (distance and heading change)
% 10,11 trip B (distance and heading change)
1738332035.5896611  1738332035.5533 109 115 123 127 128 134 136 109 171

1738332035.5899324  1738332035.5630 109 115 123 127 128 134 136 109 171

1738332035.5900788  1738332035.5727 109 115 123 127 128 134 136 109 171

1738332035.5902488  1738332035.5835 109 115 123 127 128 134 136 109 171

1738332035.5933774  1738332035.5932 109 115 123 127 128 134 136 109 171

1738332035.6030867  1738332035.6029 109 115 123 127 128 134 136 109 171

1738332035.6128325  1738332035.6127 109 115 123 127 128 134 136 109 171

1738332035.6235044  1738332035.6233 109 115 123 127 128 134 136 109 171

1738332035.6335266  1738332035.6331 109 115 123 127 128 134 136 109 171

1738332035.642963  1738332035.6428 109 115 123 127 128 134 136 109 171

% 1738332035.649376 robobot/cmd/ti/log 1
1738332035.6934826  1738332035.6526 109 115 123 127 128 134 136 109 171

1738332035.6937208  1738332035.6634 109 115 123 127 128 134 136 109 171

1738332035.693868  1738332035.6731 109 115 123 127 128 134 136 109 171

1738332035.6939902  1738332035.6827 109 115 123 127 128 134 136 109 171

1738332035.7384455  1738332035.6934 109 115 123 127 128 134 136 109 171

1738332035.7387435  1738332035.7031 109 115 123 127 128 134 136 109 171

1738332035.7389612  1738332035.7128 109 115 123 127 128 134 136 109 171

1738332035.7396402  1738332035.7235 109 115 123 127 128 134 136 109 171

1738332035.7403424  1738332035.7333 109 115 123 127 128 134 136 109 171

1738332035.743716  1738332035.7434 109 115 123 127 128 134 136 109 171

1738332035.7535205  1738332035.7533 109 115 123 127 128 134 136 109 171

1738332035.763659  1738332035.7632 109 115 123 127 128 134 136 109 171

1738332035.773231  1738332035.7730 109 115 123 127 128 134 136 109 171

1738332035.7840567  1738332035.7838 109 115 123 127 128 134 136 109 171

1738332035.7937937  1738332035.7936 109 115 123 127 128 134 136 109 171

1738332035.8034878  1738332035.8033 109 115 123 127 128 134 136 109 171

1738332035.8131847  1738332035.8130 109 115 123 127 128 134 136 109 171

1738332035.8230844  1738332035.8228 109 115 123 127 128 134 136 109 171

1738332035.833831  1738332035.8336 109 115 123 127 128 134 136 109 171

1738332035.8437061  1738332035.8434 109 115 123 127 128 134 136 109 171

1738332035.853401  1738332035.8532 109 115 123 127 128 134 136 109 171

1738332035.863061  1738332035.8629 109 115 123 127 128 134 136 109 171

1738332035.8739347  1738332035.8736 109 115 123 127 128 134 136 109 171

1738332035.8836122  1738332035.8834 109 115 123 127 128 134 136 109 171

1738332035.8932734  1738332035.8931 109 115 123 127 128 134 136 109 171

1738332035.9031603  1738332035.9029 109 115 123 127 128 134 136 109 171

1738332035.9130223  1738332035.9128 109 115 123 127 128 134 136 109 171

1738332035.9240115  1738332035.9236 109 115 123 127 128 134 136 109 171

1738332035.9336858  1738332035.9334 109 115 123 127 128 134 136 109 171

1738332035.9437442  1738332035.9435 109 115 123 127 128 134 136 109 171

1738332035.9537637  1738332035.9534 109 115 123 127 128 134 136 109 171

1738332035.963674  1738332035.9633 109 115 123 127 128 134 136 109 171

1738332035.9733303  1738332035.9731 109 115 123 127 128 134 136 109 171

1738332035.9832153  1738332035.9830 109 115 123 127 128 134 136 109 171

% 1738332035.9931066 robobot/cmd/T0/enc0  
% 1738332035.993161 robobot/cmd/T0/confw 0.075 0.075 19 68 0.23
% 1738332035.9931962 robobot/cmd/T0/encrev 1
% 1738332035.9932344 robobot/cmd/T0/confi  
1738332035.9934452  1738332035.9928 109 115 123 127 128 134 136 109 171

1738332036.039354  1738332036.0030 109 115 123 127 128 134 136 109 171

1738332036.0395968  1738332036.0128 109 115 123 127 128 134 136 109 171

1738332036.0399334  1738332036.0235 109 115 123 127 128 134 136 109 171

1738332036.040423  1738332036.0333 109 115 123 127 128 134 136 109 171

1738332036.0817788  1738332036.0431 109 115 123 127 128 134 136 109 171

1738332036.0820155  1738332036.0528 109 115 123 127 128 134 136 109 171

1738332036.0822945  1738332036.0637 109 115 123 127 128 134 136 109 171

1738332036.0824823  1738332036.0736 109 115 123 127 128 134 136 109 171

1738332036.084025  1738332036.0838 109 115 123 127 128 134 136 109 171

1738332036.0938234  1738332036.0936 109 115 123 127 128 134 136 109 171

1738332036.1037707  1738332036.1035 109 115 123 127 128 134 136 109 171

1738332036.113388  1738332036.1128 109 115 123 127 128 134 136 109 171

1738332036.123941  1738332036.1238 109 115 123 127 128 134 136 109 171

1738332036.1337883  1738332036.1335 109 115 123 127 128 134 136 109 171

1738332036.144164  1738332036.1438 109 115 123 127 128 134 136 109 171

1738332036.1537654  1738332036.1535 109 115 123 127 128 134 136 109 171

1738332036.1635716  1738332036.1633 109 115 123 127 128 134 136 109 171

1738332036.173277  1738332036.1731 109 115 123 127 128 134 136 109 171

1738332036.183138  1738332036.1829 109 115 123 127 128 134 136 109 171

1738332036.193151  1738332036.1928 109 115 123 127 128 134 136 109 171

1738332036.2038686  1738332036.2036 109 115 123 127 128 134 136 109 171

1738332036.2135909  1738332036.2134 109 115 123 127 128 134 136 109 171

1738332036.22335  1738332036.2231 109 115 123 127 128 134 136 109 171

1738332036.2335005  1738332036.2333 109 115 123 127 128 134 136 109 171

1738332036.2435904  1738332036.2434 109 115 123 127 128 134 136 109 171

1738332036.2533908  1738332036.2532 109 115 123 127 128 134 136 109 171

1738332036.263128  1738332036.2628 109 115 123 127 128 134 136 109 171

1738332036.2739315  1738332036.2737 109 115 123 127 128 134 136 109 171

1738332036.2836537  1738332036.2835 109 115 123 127 128 134 136 109 171

1738332036.2933736  1738332036.2932 109 115 123 127 128 134 136 109 171

1738332036.3034902  1738332036.3033 109 115 123 127 128 134 136 109 171

1738332036.3132567  1738332036.3130 109 115 123 127 128 134 136 109 171

1738332036.324051  1738332036.3238 109 115 123 127 128 134 136 109 171

1738332036.335547  1738332036.3336 109 115 123 127 128 134 136 109 171

1738332036.343339  1738332036.3430 109 115 123 127 128 134 136 109 171

1738332036.354076  1738332036.3538 109 115 123 127 128 134 136 109 171

1738332036.3637433  1738332036.3636 109 115 123 127 128 134 136 109 171

1738332036.373441  1738332036.3732 109 115 123 127 128 134 136 109 171

1738332036.3833163  1738332036.3830 109 115 123 127 128 134 136 109 171

1738332036.3939335  1738332036.3938 109 115 123 127 128 134 136 109 171

1738332036.4039836  1738332036.4035 109 115 123 127 128 134 136 109 171

1738332036.4134645  1738332036.4132 109 115 123 127 128 134 136 109 171

1738332036.4240615  1738332036.4239 109 115 123 127 128 134 136 109 171

1738332036.4339383  1738332036.4336 109 115 123 127 128 134 136 109 171

1738332036.4435377  1738332036.4433 109 115 123 127 128 134 136 109 171

1738332036.4531548  1738332036.4529 109 115 123 127 128 134 136 109 171

1738332036.4639716  1738332036.4638 109 115 123 127 128 134 136 109 171

1738332036.4736788  1738332036.4734 109 115 123 127 128 134 136 109 171

1738332036.4836197  1738332036.4832 109 115 123 127 128 134 136 109 171

1738332036.493152  1738332036.4929 109 115 123 127 128 134 136 109 171

1738332036.5038137  1738332036.5036 109 115 123 127 128 134 136 109 171

1738332036.5138721  1738332036.5135 109 115 123 127 128 134 136 109 171

1738332036.5234675  1738332036.5232 109 115 123 127 128 134 136 109 171

1738332036.5332131  1738332036.5329 109 115 123 127 128 134 136 109 171

1738332036.5436604  1738332036.5431 109 115 123 127 128 134 136 109 171

% 1738332036.5458078 robobot/cmd/T0/lip 1 1 1 0 1 850 800
% 1738332036.566401 robobot/cmd/T0/liwi  
% 1738332036.5868886 robobot/cmd/T0/liwi  
1738332036.5870616  1738332036.5532 108 115 123 127 128 134 136 109 174

1738332036.5872617  1738332036.5639 108 115 123 127 128 134 135 109 179

% 1738332036.6071498 robobot/cmd/T0/liwi  
1738332036.6075954  1738332036.5739 108 115 123 127 128 134 135 109 184

1738332036.607796  1738332036.5836 108 115 123 127 128 134 135 109 189

% 1738332036.6275482 robobot/cmd/T0/leds 16 0 0 30
% 1738332036.627964 robobot/cmd/ti/rc 0.0 0.0
1738332036.6289494  1738332036.5933 108 115 123 126 128 134 136 109 194

% 1738332036.6290638 robobot/cmd/ti/rc 0.250 0.000 1738332036.629009
1738332036.6296043  1738332036.6031 108 115 123 126 128 134 135 109 199

% 1738332036.6296728 robobot/cmd/ti/rc 0.250 0.000 1738332036.6296246
1738332036.6300757  1738332036.6139 109 115 123 126 129 134 135 109 204

% 1738332036.6301308 robobot/cmd/ti/rc 0.250 0.000 1738332036.6300921
1738332036.6303723  1738332036.6237 108 115 123 126 129 133 135 109 209

% 1738332036.6304386 robobot/cmd/ti/rc 0.250 0.000 1738332036.6303875
1738332036.6777694  1738332036.6338 108 115 123 126 129 134 135 109 214

% 1738332036.677867 robobot/cmd/ti/rc 0.250 0.000 1738332036.677804
1738332036.6780734  1738332036.6434 108 115 123 126 129 134 135 109 219

% 1738332036.6781137 robobot/cmd/ti/rc 0.250 0.000 1738332036.6780875
1738332036.6784554  1738332036.6531 108 115 123 126 129 134 135 109 224

% 1738332036.6785247 robobot/cmd/ti/rc 0.250 0.000 1738332036.6784754
1738332036.6788685  1738332036.6639 108 115 123 126 129 134 135 109 229

% 1738332036.6789336 robobot/cmd/ti/rc 0.250 0.000 1738332036.6788898
1738332036.6791055  1738332036.6737 108 115 123 126 129 134 135 110 234

% 1738332036.679146 robobot/cmd/ti/rc 0.250 0.000 1738332036.6791177
1738332036.7254677  1738332036.6837 108 114 123 126 129 134 136 110 239

% 1738332036.725562 robobot/cmd/ti/rc 0.250 0.000 1738332036.7254946
1738332036.7258751  1738332036.6934 108 114 123 126 129 134 136 110 244

% 1738332036.7259407 robobot/cmd/ti/rc 0.250 0.000 1738332036.7258976
1738332036.7262015  1738332036.7031 108 114 123 126 129 134 136 110 249

% 1738332036.7262504 robobot/cmd/ti/rc 0.250 0.000 1738332036.7262185
1738332036.7265284  1738332036.7139 108 115 123 126 129 134 136 110 254

% 1738332036.726581 robobot/cmd/ti/rc 0.250 0.000 1738332036.7265432
1738332036.7268143  1738332036.7235 108 115 123 126 128 134 135 110 259

% 1738332036.7268636 robobot/cmd/ti/rc 0.250 0.000 1738332036.7268286
1738332036.7740583  1738332036.7334 108 115 123 126 128 134 135 110 264

% 1738332036.7741332 robobot/cmd/ti/rc 0.250 0.000 1738332036.7740853
1738332036.7743573  1738332036.7432 108 115 123 126 128 134 135 110 269

% 1738332036.7743995 robobot/cmd/ti/rc 0.250 0.000 1738332036.7743742
1738332036.7746375  1738332036.7530 108 115 123 126 128 134 135 110 274

% 1738332036.7746694 robobot/cmd/ti/rc 0.250 0.000 1738332036.7746491
1738332036.774838  1738332036.7637 108 115 122 126 128 134 135 110 279

% 1738332036.7748666 robobot/cmd/ti/rc 0.250 0.000 1738332036.7748485
1738332036.7750108  1738332036.7734 108 115 123 126 128 134 135 109 284

% 1738332036.7750385 robobot/cmd/ti/rc 0.250 0.000 1738332036.7750218
1738332036.8237958  1738332036.7832 108 115 123 126 128 134 135 109 289

% 1738332036.8238673 robobot/cmd/ti/rc 0.250 0.000 1738332036.823821
1738332036.8240948  1738332036.7939 108 115 123 126 128 134 135 109 294

% 1738332036.824133 robobot/cmd/ti/rc 0.250 0.000 1738332036.8241084
1738332036.824311  1738332036.8036 108 115 123 126 128 134 135 109 299

% 1738332036.8243423 robobot/cmd/ti/rc 0.250 0.000 1738332036.824322
1738332036.8245323  1738332036.8133 114 126 122 124 137 139 135 103 3

% 1738332036.8245609 robobot/cmd/ti/rc 0.250 0.000 1738332036.8245428
1738332036.8247032  1738332036.8230 109 123 123 124 134 135 139 107 8

% 1738332036.8247304 robobot/cmd/ti/rc 0.250 0.000 1738332036.8247135
1738332036.873786  1738332036.8337 107 119 123 126 133 140 138 107 13

% 1738332036.8740113 robobot/cmd/ti/rc 0.250 0.000 1738332036.8738122
1738332036.8742774  1738332036.8434 107 120 125 128 134 139 138 108 18

% 1738332036.8743267 robobot/cmd/ti/rc 0.250 0.000 1738332036.8742955
1738332036.8744886  1738332036.8530 108 120 124 126 131 137 137 107 23

% 1738332036.87452 robobot/cmd/ti/rc 0.250 0.000 1738332036.8745
1738332036.8746886  1738332036.8637 110 120 122 126 130 138 138 107 28

% 1738332036.874717 robobot/cmd/ti/rc 0.250 0.000 1738332036.8746998
1738332036.8748782  1738332036.8734 109 119 122 126 130 138 138 108 33

% 1738332036.8749044 robobot/cmd/ti/rc 0.250 0.000 1738332036.874888
1738332036.92335  1738332036.8831 107 119 122 124 129 138 137 108 38

% 1738332036.9234228 robobot/cmd/ti/rc 0.250 0.000 1738332036.9233756
1738332036.9237287  1738332036.8938 106 120 122 124 129 138 137 108 43

% 1738332036.9237826 robobot/cmd/ti/rc 0.250 0.000 1738332036.9237494
1738332036.9239771  1738332036.9035 107 120 122 125 130 138 137 108 48

% 1738332036.9240112 robobot/cmd/ti/rc 0.250 0.000 1738332036.9239893
1738332036.9242535  1738332036.9133 107 120 122 125 130 138 137 110 53

% 1738332036.9242942 robobot/cmd/ti/rc 0.250 0.000 1738332036.9242678
1738332036.9244473  1738332036.9229 105 119 121 125 130 138 137 110 58

% 1738332036.9244769 robobot/cmd/ti/rc 0.250 0.000 1738332036.9244587
% 1738332036.969135 % State change from -1 to 12
1738332036.974084  1738332036.9337 106 120 122 125 129 138 137 110 63

% 1738332036.9741642 robobot/cmd/ti/rc 0.250 0.000 1738332036.9741104
1738332036.9744  1738332036.9438 106 119 122 125 130 138 136 110 68

% 1738332036.9744372 robobot/cmd/ti/rc 0.250 0.000 1738332036.9744134
1738332036.9746249  1738332036.9536 106 119 122 125 130 138 136 111 73

% 1738332036.974658 robobot/cmd/ti/rc 0.250 0.000 1738332036.974636
1738332036.975112  1738332036.9636 107 118 122 125 129 137 136 110 78

% 1738332036.9751618 robobot/cmd/ti/rc 0.250 0.000 1738332036.9751272
1738332036.9753428  1738332036.9732 107 118 121 125 129 137 137 111 83

% 1738332036.9753776 robobot/cmd/ti/rc 0.250 0.000 1738332036.9753568
1738332037.024901  1738332036.9834 107 117 122 125 129 137 136 110 88

% 1738332037.024994 robobot/cmd/ti/rc 0.250 0.000 1738332037.0249321
1738332037.0256479  1738332036.9931 106 117 122 125 129 137 136 110 93

% 1738332037.025743 robobot/cmd/ti/rc 0.250 0.000 1738332037.0256782
1738332037.0260012  1738332037.0038 106 117 122 125 129 138 136 111 98

% 1738332037.0260634 robobot/cmd/ti/rc 0.250 0.000 1738332037.026019
1738332037.0262852  1738332037.0135 106 117 122 125 129 137 136 111 103

% 1738332037.026326 robobot/cmd/ti/rc 0.250 0.000 1738332037.0263007
1738332037.02651  1738332037.0232 107 117 122 125 129 137 136 111 108

% 1738332037.0265455 robobot/cmd/ti/rc 0.250 0.000 1738332037.026523
% 1738332037.0694299 robobot/cmd/ti/alive 2025-01-31 15:00:35.545505
% 1738332037.0695264 robobot/cmd/ti/rc 0.1 0.5
1738332037.0699344  1738332037.0330 106 117 122 125 129 137 136 111 113

1738332037.1176674  1738332037.0437 106 116 122 125 130 137 136 111 118

1738332037.1178334  1738332037.0533 107 116 122 125 130 137 136 112 123

1738332037.1179814  1738332037.0640 107 116 122 125 129 137 136 112 128

1738332037.1181056  1738332037.0740 107 116 122 125 129 136 136 112 133

1738332037.1182745  1738332037.0837 107 116 122 125 129 136 137 112 138

1738332037.1183965  1738332037.0933 107 116 121 125 129 136 137 111 143

1738332037.1187217  1738332037.1040 107 116 121 125 129 136 137 111 148

1738332037.118887  1738332037.1138 107 116 121 125 129 136 137 111 153

1738332037.1552536  1738332037.1235 107 116 121 125 129 136 136 111 158

1738332037.155418  1738332037.1331 107 116 121 125 129 136 136 111 163

1738332037.1555796  1738332037.1441 107 115 121 125 129 136 136 111 168

1738332037.1557033  1738332037.1541 107 116 121 124 129 136 136 111 173

1738332037.2007604  1738332037.1637 107 116 121 124 129 135 136 111 178

1738332037.2009387  1738332037.1734 107 116 121 125 129 135 136 111 183

1738332037.2010894  1738332037.1831 107 116 120 125 129 135 136 111 188

1738332037.2012181  1738332037.1938 107 116 120 124 129 135 136 111 193

1738332037.2449431  1738332037.2035 107 116 120 124 129 135 136 110 198

1738332037.2451644  1738332037.2132 107 115 120 125 129 135 136 110 203

1738332037.2453983  1738332037.2239 107 115 120 125 129 135 136 110 208

1738332037.2456522  1738332037.2336 107 115 120 125 129 135 136 110 213

1738332037.245784  1738332037.2433 107 116 120 125 129 135 135 110 218

1738332037.2857065  1738332037.2541 107 115 120 125 129 135 135 110 223

1738332037.285931  1738332037.2638 108 115 120 124 129 135 135 110 228

1738332037.2860584  1738332037.2734 107 115 121 124 129 135 135 110 233

1738332037.2862043  1738332037.2831 107 115 121 124 129 135 135 110 238

1738332037.2943501  1738332037.2940 107 115 121 124 129 135 135 110 243

1738332037.3034308  1738332037.3032 107 115 121 124 129 135 135 110 248

1738332037.314254  1738332037.3140 107 115 121 125 129 136 135 110 253

1738332037.3240566  1738332037.3237 107 115 121 125 129 136 135 109 258

1738332037.3337142  1738332037.3335 108 115 121 125 129 136 135 110 263

1738332037.344015  1738332037.3436 108 115 121 124 129 136 135 109 268

% 1738332037.351716 14 0.000 0.000 0.000 3 0.00 0.133 0.000 0.0431 0.0000
% 1738332037.3517463 % State change from 12 to 14
1738332037.3539152  1738332037.3536 108 115 121 124 129 135 135 110 273

1738332037.3635638  1738332037.3634 108 115 121 124 129 136 135 110 278

1738332037.373292  1738332037.3731 108 115 121 124 129 135 135 110 283

1738332037.3842719  1738332037.3840 108 115 121 124 129 136 135 110 288

1738332037.3939445  1738332037.3937 108 115 121 124 129 135 135 109 293

1738332037.4037375  1738332037.4034 108 115 121 125 129 135 135 109 298

1738332037.413529  1738332037.4133 97 108 116 112 121 120 121 85 2

1738332037.4242759  1738332037.4240 110 111 116 121 126 133 131 102 7

1738332037.4341307  1738332037.4338 108 112 116 124 128 136 131 104 12

1738332037.4437296  1738332037.4435 108 115 119 124 128 136 134 108 17

% 1738332037.4519246 robobot/cmd/ti/alive 2025-01-31 15:00:35.545505
1738332037.4974878  1738332037.4532 107 113 120 124 128 135 134 107 22

1738332037.4977517  1738332037.4640 105 115 121 124 129 134 136 106 27

1738332037.497906  1738332037.4737 106 115 121 124 130 132 136 107 32

1738332037.4980874  1738332037.4834 107 115 122 124 131 133 134 107 37

1738332037.498249  1738332037.4940 108 115 121 124 130 134 134 107 42

1738332037.5419846  1738332037.5039 108 115 122 125 130 133 134 107 47

1738332037.542319  1738332037.5136 108 116 121 125 130 133 134 107 52

1738332037.5425541  1738332037.5233 109 116 122 125 130 133 134 107 57

1738332037.5428648  1738332037.5340 108 116 122 125 130 133 134 107 62

1738332037.5817032  1738332037.5431 108 116 122 124 129 133 134 107 67

1738332037.5819016  1738332037.5540 108 115 122 124 130 133 134 107 72

1738332037.5821276  1738332037.5637 108 115 123 125 129 133 134 107 77

1738332037.5822625  1738332037.5733 108 116 122 125 129 134 134 107 82

1738332037.5843067  1738332037.5841 108 116 122 125 129 134 134 107 87

1738332037.593475  1738332037.5931 108 116 123 125 129 134 134 107 92

1738332037.6043098  1738332037.6040 108 115 123 125 129 134 134 108 97

1738332037.6140645  1738332037.6137 107 115 123 125 129 135 134 108 102

1738332037.623827  1738332037.6235 107 115 123 125 129 135 134 108 107

1738332037.6335604  1738332037.6333 107 115 123 125 129 135 134 108 112

1738332037.6446743  1738332037.6440 107 115 123 124 129 135 134 108 117

1738332037.654161  1738332037.6538 107 115 123 124 129 135 134 108 122

